time (s)	det(V)
1953.320870	0.080657	
1953.322873	0.091748	
1953.324872	0.097123	
1953.328873	0.105187	
1953.330873	0.120261	
1953.332873	0.127523	
1953.334873	0.132414	
1953.336873	0.140035	
1953.338877	0.146325	
1953.340874	0.150255	
1953.344875	0.156889	
1953.346876	0.167572	
1953.348878	0.176010	
1953.350877	0.182024	
1953.352876	0.186010	
1953.354876	0.191686	
1953.356876	0.195896	
1953.360875	0.203279	
1953.364874	0.211215	
1953.366876	0.222495	
1953.368876	0.229054	
1953.370877	0.235782	
1953.372877	0.239968	
1953.374877	0.243685	
1953.378875	0.250428	
1953.380877	0.260606	
1953.382875	0.264622	
1953.386876	0.268341	
1953.388877	0.280656	
1953.390876	0.285830	
1953.392877	0.289799	
1953.394876	0.293288	
1953.396878	0.298519	
1953.400875	0.302719	
1953.402877	0.307652	
1953.404876	0.312246	
1953.406877	0.315381	
1953.408878	0.320621	
1953.410876	0.324399	
1953.412877	0.325166	
1953.414877	0.329805	
1953.416877	0.333273	
1953.420875	0.334675	
1953.424875	0.337958	
1953.426877	0.345969	
1953.428877	0.348285	
1953.430876	0.351676	
1953.432876	0.353040	
1953.436874	0.355388	
1953.438875	0.359855	
1953.440880	0.360374	
1953.444879	0.362577	
1953.446879	0.367618	
1953.448879	0.370411	
1953.450878	0.371724	
1953.452878	0.371671	
1953.454879	0.374282	
1953.456880	0.373271	
1953.460889	0.374137	
1953.462891	0.374766	
1953.464891	0.378055	
1953.466891	0.379442	
1953.468890	0.378540	
1953.470890	0.379432	
1953.472889	0.379093	
1953.474891	0.379963	
1953.476891	0.379092	
1953.478897	0.379268	
1953.482899	0.379825	
1953.484901	0.380100	
1953.486900	0.380848	
1953.488900	0.381573	
1953.490901	0.380892	
1953.492901	0.381682	
1953.496898	0.382217	
1953.498899	0.381156	
1953.500900	0.380431	
1953.504901	0.380496	
1953.506900	0.381112	
1953.508901	0.380354	
1953.510900	0.380051	
1953.512900	0.378614	
1953.514901	0.379936	
1953.518902	0.378709	
1953.520901	0.375917	
1953.522901	0.373327	
1953.524900	0.373572	
1953.526904	0.373370	
1953.528900	0.372166	
1953.530899	0.370744	
1953.532900	0.369228	
1953.534902	0.368599	
1953.538909	0.366091	
1953.542910	0.360201	
1953.544911	0.359518	
1953.546912	0.356722	
1953.548911	0.356589	
1953.550911	0.352188	
1953.554909	0.351349	
1953.556911	0.343559	
1953.558910	0.341874	
1953.562910	0.339538	
1953.564910	0.336373	
1953.566911	0.333585	
1953.568911	0.330039	
1953.570911	0.327744	
1953.572910	0.324182	
1953.574910	0.320091	
1953.578909	0.316031	
1953.580910	0.310858	
1953.582911	0.308895	
1953.584911	0.305778	
1953.586910	0.303418	
1953.588911	0.299140	
1953.590913	0.295494	
1953.594909	0.294038	
1953.596911	0.285995	
1953.598910	0.283632	
1953.600911	0.279865	
1953.602909	0.276809	
1953.604911	0.275565	
1953.606910	0.271519	
1953.608911	0.269105	
1953.610910	0.265308	
1953.614909	0.262699	
1953.618908	0.254921	
1953.620909	0.249782	
1953.622910	0.245649	
1953.624910	0.244010	
1953.626910	0.240626	
1953.628911	0.235845	
1953.632908	0.234335	
1953.634911	0.225343	
1953.636909	0.223197	
1953.640911	0.219673	
1953.642910	0.213696	
1953.644911	0.210946	
1953.646910	0.206818	
1953.648910	0.205007	
1953.650911	0.201858	
1953.652910	0.196714	
1953.656910	0.193815	
1953.658911	0.187166	
1953.660910	0.185619	
1953.662911	0.181534	
1953.664910	0.180486	
1953.666911	0.176492	
1953.668911	0.173805	
1953.670910	0.172050	
1953.672910	0.166066	
1953.676909	0.162723	
1953.678911	0.157016	
1953.680911	0.155231	
1953.682911	0.153336	
1953.684911	0.150583	
1953.686909	0.147195	
1953.688911	0.145077	
1953.692909	0.142123	
1953.694909	0.134435	
1953.696911	0.131663	
1953.698910	0.129839	
1953.700912	0.127497	
1953.702911	0.125423	
1953.704911	0.123670	
1953.706909	0.119086	
1953.708911	0.117504	
1953.712909	0.115502	
1953.716909	0.109592	
1953.718910	0.104475	
1953.720910	0.102501	
1953.722911	0.100694	
1953.724911	0.097080	
1953.726911	0.095259	
1953.730909	0.092607	
1953.732912	0.086999	
1953.734911	0.084480	
1953.738912	0.082805	
1953.740913	0.077153	
1953.742913	0.077226	
1953.744913	0.073784	
1953.746913	0.070584	
1953.748912	0.070875	
1953.750915	0.065980	
1953.756917	0.061147	
1953.758919	0.057297	
1953.760918	0.054879	
1953.762919	0.052151	
1953.764918	0.051048	
1953.768916	0.048190	
1953.770919	0.041483	
1953.772918	0.038690	
1953.776919	0.035227	
1953.778917	0.032088	
1953.780919	0.030635	
1953.782917	0.028015	
1953.784919	0.025384	
1953.786919	0.022291	
1953.788921	0.019070	
1953.792919	0.015124	
1953.794919	0.010164	
1953.796919	0.008008	
1953.798919	0.007469	
1953.800919	0.004695	
1953.802919	0.001572	
1953.804918	-0.000985	
1953.806918	-0.004484	
1953.808919	-0.006617	
1953.810917	-0.010262	
1953.814918	-0.013264	
1953.816919	-0.017538	
1953.818918	-0.018011	
1953.820918	-0.020059	
1953.822919	-0.024303	
1953.824919	-0.026335	
1953.828916	-0.028493	
1953.830919	-0.035043	
1953.832920	-0.036629	
1953.836918	-0.039421	
1953.838919	-0.042790	
1953.840919	-0.046434	
1953.842918	-0.047802	
1953.844920	-0.050307	
1953.846917	-0.053213	
1953.850918	-0.055663	
1953.854918	-0.062001	
1953.856919	-0.065990	
1953.858917	-0.068123	
1953.860917	-0.070726	
1953.862919	-0.073418	
1953.866917	-0.075018	
1953.868919	-0.081908	
1953.870919	-0.084273	
1953.874917	-0.088037	
1953.876919	-0.091495	
1953.878919	-0.095134	
1953.880917	-0.096266	
1953.882917	-0.099116	
1953.884917	-0.101771	
1953.888918	-0.105680	
1953.892919	-0.112587	
1953.894918	-0.116702	
1953.896918	-0.119340	
1953.898917	-0.121603	
1953.900917	-0.124308	
1953.904917	-0.128337	
1953.906918	-0.135279	
1953.908918	-0.138212	
1953.912918	-0.141744	
1953.914919	-0.145888	
1953.916919	-0.148449	
1953.918918	-0.152165	
1953.920917	-0.154081	
1953.922918	-0.157889	
1953.924918	-0.162526	
1953.928918	-0.165846	
1953.930919	-0.172631	
1953.932919	-0.174246	
1953.934920	-0.177547	
1953.936919	-0.179708	
1953.938919	-0.184280	
1953.940917	-0.187581	
1953.942919	-0.190817	
1953.944918	-0.195103	
1953.948918	-0.199519	
1953.950919	-0.205409	
1953.952919	-0.207512	
1953.954918	-0.211249	
1953.956918	-0.214555	
1953.958918	-0.218194	
1953.960919	-0.221154	
1953.964916	-0.225124	
1953.968916	-0.233285	
1953.970919	-0.239171	
1953.972918	-0.241921	
1953.974919	-0.245939	
1953.976919	-0.248885	
1953.978919	-0.253473	
1953.982916	-0.256291	
1953.984918	-0.264027	
1953.986918	-0.267693	
1953.990918	-0.271021	
1953.992919	-0.276495	
1953.994919	-0.279483	
1953.996919	-0.283684	
1953.998919	-0.286067	
1954.000918	-0.289453	
1954.002925	-0.294161	
1954.006921	-0.297592	
1954.008923	-0.304655	
1954.010923	-0.306994	
1954.012923	-0.310081	
1954.014922	-0.311976	
1954.016923	-0.314780	
1954.018921	-0.319211	
1954.020923	-0.321117	
1954.022923	-0.327024	
1954.026924	-0.330750	
1954.028927	-0.336801	
1954.030927	-0.337772	
1954.032932	-0.340830	
1954.034936	-0.343950	
1954.036935	-0.346989	
1954.038934	-0.350558	
1954.042933	-0.352766	
1954.046933	-0.359963	
1954.048934	-0.364264	
1954.050935	-0.366790	
1954.052935	-0.369189	
1954.054933	-0.370075	
1954.056934	-0.375142	
1954.058935	-0.376601	
1954.060934	-0.378434	
1954.062934	-0.382588	
1954.066939	-0.382537	
1954.068941	-0.386638	
1954.070941	-0.387641	
1954.072940	-0.389320	
1954.074941	-0.390194	
1954.076943	-0.391845	
1954.078942	-0.393552	
1954.080943	-0.393781	
1954.082942	-0.395641	
1954.086951	-0.397364	
1954.088952	-0.398630	
1954.090953	-0.399266	
1954.092953	-0.399227	
1954.094951	-0.400394	
1954.096953	-0.400753	
1954.098953	-0.399991	
1954.102951	-0.400663	
1954.104953	-0.403539	
1954.106953	-0.405301	
1954.108952	-0.404677	
1954.110958	-0.403375	
1954.112963	-0.403224	
1954.114963	-0.401851	
1954.116962	-0.402540	
1954.118963	-0.401765	
1954.122961	-0.399620	
1954.126960	-0.403224	
1954.128963	-0.401247	
1954.130963	-0.398298	
1954.132966	-0.396816	
1954.134969	-0.396271	
1954.136971	-0.395504	
1954.138970	-0.393070	
1954.140970	-0.393827	
1954.144975	-0.393754	
1954.148976	-0.390267	
1954.150977	-0.384493	
1954.152978	-0.382810	
1954.154978	-0.380521	
1954.156977	-0.379643	
1954.160975	-0.375746	
1954.162977	-0.373128	
1954.164976	-0.368861	
1954.168975	-0.365942	
1954.170977	-0.357352	
1954.172979	-0.355163	
1954.174975	-0.352327	
1954.176976	-0.347964	
1954.178976	-0.344828	
1954.180980	-0.341676	
1954.184984	-0.338092	
1954.186984	-0.329877	
1954.188985	-0.325425	
1954.190985	-0.322623	
1954.192985	-0.317533	
1954.194985	-0.314206	
1954.196984	-0.309534	
1954.198983	-0.304153	
1954.200985	-0.301616	
1954.204984	-0.297660	
1954.206984	-0.288820	
1954.208985	-0.283430	
1954.210985	-0.277314	
1954.212983	-0.273127	
1954.214984	-0.267994	
1954.216985	-0.262143	
1954.220983	-0.257285	
1954.222986	-0.249268	
1954.224985	-0.244250	
1954.228985	-0.238891	
1954.230985	-0.226616	
1954.232984	-0.219983	
1954.234984	-0.214589	
1954.236985	-0.210141	
1954.238990	-0.204216	
1954.240987	-0.200426	
1954.242986	-0.195592	
1954.247000	-0.188509	
1954.249000	-0.176963	
1954.251000	-0.170798	
1954.253001	-0.164130	
1954.255000	-0.157216	
1954.257001	-0.151633	
1954.260999	-0.146287	
1954.263000	-0.136810	
1954.265000	-0.129903	
1954.269001	-0.124147	
1954.271001	-0.110715	
1954.273002	-0.104893	
1954.275001	-0.099450	
1954.277001	-0.093831	
1954.279000	-0.087385	
1954.281003	-0.082386	
1954.285001	-0.074744	
1954.287000	-0.063864	
1954.289001	-0.056968	
1954.291000	-0.051492	
1954.293000	-0.043678	
1954.295003	-0.037518	
1954.297000	-0.032394	
1954.299001	-0.023894	
1954.301001	-0.020048	
1954.304999	-0.014412	
1954.307001	-0.001244	
1954.309000	0.006901	
1954.311000	0.012079	
1954.313000	0.019162	
1954.315000	0.026427	
1954.317000	0.033368	
1954.319000	0.038293	
1954.321000	0.043653	
1954.325005	0.049428	
1954.327007	0.061695	
1954.329007	0.068358	
1954.331007	0.074687	
1954.333007	0.083212	
1954.335006	0.088721	
1954.337007	0.095118	
1954.341004	0.101759	
1954.345004	0.111680	
1954.347007	0.124295	
1954.349005	0.132858	
1954.351006	0.138345	
1954.353006	0.144991	
1954.355006	0.150575	
1954.359004	0.156540	
1954.361007	0.166478	
1954.363005	0.172323	
1954.367005	0.179345	
1954.369007	0.191526	
1954.371007	0.198420	
1954.373006	0.202704	
1954.375006	0.207385	
1954.377006	0.214270	
1954.381009	0.217727	
1954.385010	0.230405	
1954.387011	0.241814	
1954.391008	0.252353	
1954.393012	0.258712	
1954.397010	0.264491	
1954.399013	0.275117	
1954.401012	0.280039	
1954.405011	0.285344	
1954.407013	0.297736	
1954.409013	0.304253	
1954.411014	0.310144	
1954.413013	0.314033	
1954.417011	0.322219	
1954.421010	0.329567	
1954.423012	0.341380	
1954.425013	0.346332	
1954.427013	0.351659	
1954.429013	0.355370	
1954.431012	0.360519	
1954.435010	0.366722	
1954.437013	0.373020	
1954.439014	0.378397	
1954.443012	0.381018	
1954.445013	0.391279	
1954.447014	0.394137	
1954.449012	0.399646	
1954.451012	0.402444	
1954.453013	0.406033	
1954.455015	0.409235	
1954.459012	0.410701	
1954.461012	0.418147	
1954.463013	0.421984	
1954.465012	0.425718	
1954.467012	0.429720	
1954.469014	0.431516	
1954.471013	0.433444	
1954.473013	0.436180	
1954.475013	0.437227	
1954.479011	0.438949	
1954.481012	0.443440	
1954.483013	0.446225	
1954.485013	0.446811	
1954.487013	0.449047	
1954.489012	0.449704	
1954.491012	0.450839	
1954.495011	0.452945	
1954.497012	0.453570	
1954.499012	0.454201	
1954.501013	0.454063	
1954.503015	0.455836	
1954.505023	0.457822	
1954.507022	0.458802	
1954.509022	0.458080	
1954.511022	0.459273	
1954.515021	0.459330	
1954.519021	0.459114	
1954.521023	0.459817	
1954.523022	0.459770	
1954.525020	0.460518	
1954.527023	0.460500	
1954.529022	0.459021	
1954.533021	0.459079	
1954.535021	0.457536	
1954.537023	0.456146	
1954.541023	0.454702	
1954.543025	0.454296	
1954.545025	0.453493	
1954.547024	0.450642	
1954.549024	0.451349	
1954.551025	0.448857	
1954.553028	0.446000	
1954.557027	0.444546	
1954.559028	0.440466	
1954.561029	0.438976	
1954.563029	0.436839	
1954.565028	0.435215	
1954.567028	0.433228	
1954.569030	0.431174	
1954.573028	0.428481	
1954.575030	0.421387	
1954.577029	0.418438	
1954.579031	0.415733	
1954.581032	0.414327	
1954.583031	0.412459	
1954.585031	0.410135	
1954.587031	0.405633	
1954.589031	0.402446	
1954.593029	0.399707	
1954.597028	0.391106	
1954.599030	0.385194	
1954.601030	0.383049	
1954.603031	0.379088	
1954.605030	0.377141	
1954.607031	0.372360	
1954.611028	0.368686	
1954.613030	0.361240	
1954.615030	0.357895	
1954.619030	0.354420	
1954.621031	0.348966	
1954.623029	0.345191	
1954.625031	0.341092	
1954.627030	0.337749	
1954.629031	0.334703	
1954.633029	0.329606	
1954.637031	0.322569	
1954.639031	0.317293	
1954.641029	0.312533	
1954.643030	0.309835	
1954.645031	0.305158	
1954.649028	0.302272	
1954.651030	0.293950	
1954.653029	0.288837	
1954.657030	0.286906	
1954.659030	0.279552	
1954.661031	0.276942	
1954.663031	0.272920	
1954.667028	0.267384	
1954.669035	0.261113	
1954.673040	0.257375	
1954.675041	0.250329	
1954.677041	0.247804	
1954.679040	0.244822	
1954.681041	0.242070	
1954.683041	0.239544	
1954.685041	0.235699	
1954.687041	0.232714	
1954.689040	0.228229	
1954.693039	0.223781	
1954.695040	0.218407	
1954.697040	0.215852	
1954.699039	0.213988	
1954.701041	0.210934	
1954.703039	0.206310	
1954.705041	0.204414	
1954.707041	0.200870	
1954.709041	0.195876	
1954.713039	0.192989	
1954.715041	0.187016	
1954.717040	0.186122	
1954.719040	0.181912	
1954.721041	0.179956	
1954.723041	0.176867	
1954.725040	0.172170	
1954.729039	0.171050	
1954.733038	0.162207	
1954.735041	0.156976	
1954.737041	0.155086	
1954.739041	0.152406	
1954.741045	0.148071	
1954.743046	0.145927	
1954.747043	0.143615	
1954.749044	0.136826	
1954.751044	0.132535	
1954.755043	0.129571	
1954.757044	0.125668	
1954.759045	0.122512	
1954.761045	0.120348	
1954.763044	0.117309	
1954.765045	0.115244	
1954.769044	0.111669	
1954.771045	0.105992	
1954.773045	0.102445	
1954.775046	0.100186	
1954.777045	0.099876	
1954.779044	0.096987	
1954.781045	0.094369	
1954.783043	0.092995	
1954.785045	0.090290	
1954.787044	0.086076	
1954.791043	0.083959	
1954.793045	0.078666	
1954.795045	0.078889	
1954.797045	0.075143	
1954.799045	0.074624	
1954.801045	0.071681	
1954.803043	0.068734	
1954.805045	0.067605	
1954.807045	0.063293	
1954.811042	0.060737	
1954.813044	0.055558	
1954.815045	0.055337	
1954.817044	0.054116	
1954.819044	0.050957	
1954.821045	0.048426	
1954.823044	0.045523	
1954.827042	0.043369	
1954.831043	0.033964	
1954.833045	0.034537	
1954.835045	0.032089	
1954.837044	0.029842	
1954.839050	0.026602	
1954.841051	0.024019	
1954.845046	0.022412	
1954.847046	0.015573	
1954.851047	0.014461	
1954.853047	0.009790	
1954.855047	0.008768	
1954.857047	0.006648	
1954.859047	0.003409	
1954.863044	0.003231	
1954.865046	-0.002911	
1954.867047	-0.005603	
1954.871046	-0.007659	
1954.873046	-0.009620	
1954.875046	-0.012890	
1954.877047	-0.014790	
1954.879047	-0.016874	
1954.881047	-0.018487	
1954.885052	-0.020164	
1954.889054	-0.026506	
1954.891054	-0.030110	
1954.893054	-0.030879	
1954.895054	-0.032218	
1954.897054	-0.034900	
1954.901053	-0.036003	
1954.903055	-0.043591	
1954.905054	-0.045284	
1954.909054	-0.047870	
1954.911054	-0.050036	
1954.913057	-0.052230	
1954.915055	-0.055188	
1954.917056	-0.057399	
1954.919057	-0.059455	
1954.921058	-0.061517	
1954.925059	-0.065042	
1954.927059	-0.070712	
1954.929059	-0.071810	
1954.931059	-0.073576	
1954.933059	-0.074274	
1954.935060	-0.078019	
1954.937059	-0.080049	
1954.939059	-0.081932	
1954.941061	-0.087719	
1954.943070	-0.089648	
1954.947065	-0.090753	
1954.949065	-0.095835	
1954.951063	-0.097431	
1954.953065	-0.099840	
1954.955065	-0.102119	
1954.957064	-0.106063	
1954.959065	-0.108086	
1954.963063	-0.109993	
1954.967062	-0.117686	
1954.969065	-0.123171	
1954.971064	-0.125378	
1954.973065	-0.127347	
1954.975065	-0.130691	
1954.977065	-0.133983	
1954.981062	-0.136432	
1954.983065	-0.143947	
1954.985065	-0.147068	
1954.989063	-0.151070	
1954.991063	-0.156149	
1954.993065	-0.158472	
1954.995065	-0.162353	
1954.997063	-0.166011	
1954.999065	-0.166980	
1955.001064	-0.173344	
1955.005062	-0.177053	
1955.007065	-0.184544	
1955.009064	-0.186048	
1955.011065	-0.187797	
1955.013065	-0.191593	
1955.015065	-0.194814	
1955.017064	-0.198339	
1955.021062	-0.201350	
1955.025062	-0.209627	
1955.027065	-0.216049	
1955.029064	-0.218097	
1955.033062	-0.224201	
1955.035065	-0.227317	
1955.039062	-0.231575	
1955.041064	-0.239886	
1955.043064	-0.242752	
1955.047063	-0.246312	
1955.049065	-0.250499	
1955.051065	-0.254264	
1955.053065	-0.258970	
1955.055063	-0.261204	
1955.057063	-0.264769	
1955.061066	-0.270474	
1955.065065	-0.277965	
1955.067067	-0.282667	
1955.069065	-0.286676	
1955.071067	-0.289674	
1955.073067	-0.293630	
1955.077065	-0.297851	
1955.079065	-0.305936	
1955.081066	-0.310080	
1955.085066	-0.312115	
1955.087066	-0.318385	
1955.089067	-0.321023	
1955.091067	-0.325306	
1955.093067	-0.329095	
1955.095067	-0.331072	
1955.099069	-0.335712	
1955.103070	-0.345478	
1955.105071	-0.347989	
1955.107071	-0.349831	
1955.109069	-0.354270	
1955.111069	-0.355805	
1955.115068	-0.359627	
1955.117070	-0.365332	
1955.119071	-0.369570	
1955.123071	-0.371189	
1955.125070	-0.374900	
1955.127071	-0.377483	
1955.129070	-0.379763	
1955.131070	-0.381667	
1955.133069	-0.383243	
1955.135069	-0.385266	
1955.139070	-0.388313	
1955.141071	-0.392496	
1955.143071	-0.393800	
1955.145070	-0.393970	
1955.147070	-0.396449	
1955.149070	-0.397094	
1955.151070	-0.399628	
1955.155068	-0.400443	
1955.157070	-0.405413	
1955.159071	-0.407168	
1955.161071	-0.407778	
1955.163069	-0.408541	
1955.165071	-0.407629	
1955.167070	-0.407799	
1955.169070	-0.409616	
1955.171071	-0.410873	
1955.175068	-0.410114	
1955.179068	-0.414329	
1955.181070	-0.414530	
1955.183070	-0.411572	
1955.185070	-0.411484	
1955.187070	-0.412173	
1955.189070	-0.411591	
1955.193068	-0.412369	
1955.195071	-0.411920	
1955.197071	-0.412255	
1955.201070	-0.410309	
1955.203070	-0.407926	
1955.205072	-0.404751	
1955.207071	-0.405027	
1955.209071	-0.404073	
1955.211070	-0.401762	
1955.213078	-0.402354	
1955.217082	-0.400840	
1955.219083	-0.398134	
1955.221083	-0.394533	
1955.223083	-0.392415	
1955.225082	-0.391336	
1955.227082	-0.389950	
1955.229081	-0.387027	
1955.231082	-0.384909	
1955.233086	-0.381580	
1955.237087	-0.380117	
1955.239085	-0.374328	
1955.241087	-0.371190	
1955.243087	-0.367189	
1955.245092	-0.363014	
1955.247091	-0.361029	
1955.249090	-0.355888	
1955.253089	-0.351572	
1955.255091	-0.346639	
1955.257090	-0.343275	
1955.259090	-0.340066	
1955.261100	-0.333405	
1955.263098	-0.328861	
1955.265098	-0.324811	
1955.267098	-0.319443	
1955.269099	-0.315678	
1955.271098	-0.309734	
1955.275098	-0.306637	
1955.277099	-0.298494	
1955.279097	-0.293780	
1955.281099	-0.288074	
1955.283101	-0.280598	
1955.285101	-0.275599	
1955.287100	-0.271460	
1955.289099	-0.265942	
1955.291100	-0.261963	
1955.295100	-0.257475	
1955.299099	-0.248747	
1955.301101	-0.235080	
1955.303100	-0.228094	
1955.305101	-0.221027	
1955.307101	-0.218182	
1955.311098	-0.214871	
1955.313100	-0.202801	
1955.315100	-0.194906	
1955.319101	-0.189972	
1955.321100	-0.181643	
1955.323100	-0.173737	
1955.325100	-0.166667	
1955.327101	-0.161626	
1955.329100	-0.156329	
1955.333101	-0.153262	
1955.337102	-0.140812	
1955.339103	-0.127959	
1955.341102	-0.123503	
1955.343105	-0.116219	
1955.345107	-0.109627	
1955.349107	-0.105270	
1955.351109	-0.094475	
1955.353108	-0.088009	
1955.357108	-0.080393	
1955.359108	-0.068257	
1955.361108	-0.061588	
1955.363108	-0.054585	
1955.365108	-0.047981	
1955.367109	-0.039424	
1955.369109	-0.035508	
1955.373108	-0.029963	
1955.375108	-0.016589	
1955.377109	-0.007397	
1955.379109	-0.000699	
1955.381109	0.005620	
1955.383108	0.012112	
1955.385108	0.018354	
1955.387108	0.025208	
1955.389109	0.031184	
1955.393108	0.034959	
1955.395108	0.048399	
1955.397109	0.055948	
1955.399108	0.063910	
1955.401109	0.069283	
1955.403108	0.075193	
1955.405109	0.082167	
1955.407108	0.088485	
1955.409108	0.094038	
1955.413108	0.100302	
1955.415108	0.112646	
1955.417108	0.120676	
1955.419109	0.126831	
1955.421107	0.133483	
1955.423109	0.138836	
1955.425109	0.144137	
1955.429107	0.151665	
1955.433107	0.162178	
1955.435109	0.173089	
1955.437108	0.179555	
1955.439108	0.187446	
